"p","U:0","U:1","U:2","k","nut","omega","vtkValidPointMask","arc_length","Points:0","Points:1","Points:2"
-8.34418e+003,-1.02000e+002,0.00000e+000,0.00000e+000,1.00000e-002,1.00000e-002,1.00000e+000,1,0.00000e+000,-2.00000e+003,6.50000e+001,6.50000e+001
-8.33023e+003,-1.02183e+002,4.96636e-001,1.11935e+000,9.10159e-001,8.30580e-001,9.70824e-001,1,4.00000e+000,-1.99600e+003,6.50000e+001,6.50000e+001
-8.31629e+003,-1.02365e+002,9.93273e-001,2.23870e+000,1.81032e+000,1.65116e+000,9.41649e-001,1,8.00000e+000,-1.99200e+003,6.50000e+001,6.50000e+001
-8.30234e+003,-1.02548e+002,1.48991e+000,3.35805e+000,2.71048e+000,2.47174e+000,9.12473e-001,1,1.20000e+001,-1.98800e+003,6.50000e+001,6.50000e+001
-8.28840e+003,-1.02730e+002,1.98655e+000,4.47739e+000,3.61064e+000,3.29232e+000,8.83298e-001,1,1.60000e+001,-1.98400e+003,6.50000e+001,6.50000e+001
-8.27446e+003,-1.02913e+002,2.48318e+000,5.59674e+000,4.51080e+000,4.11290e+000,8.54122e-001,1,2.00000e+001,-1.98000e+003,6.50000e+001,6.50000e+001
-8.26051e+003,-1.03096e+002,2.97982e+000,6.71609e+000,5.41095e+000,4.93348e+000,8.24947e-001,1,2.40000e+001,-1.97600e+003,6.50000e+001,6.50000e+001
-8.24657e+003,-1.03278e+002,3.47645e+000,7.83544e+000,6.31111e+000,5.75406e+000,7.95771e-001,1,2.80000e+001,-1.97200e+003,6.50000e+001,6.50000e+001
-8.23262e+003,-1.03461e+002,3.97309e+000,8.95479e+000,7.21127e+000,6.57464e+000,7.66596e-001,1,3.20000e+001,-1.96800e+003,6.50000e+001,6.50000e+001
-8.21868e+003,-1.03643e+002,4.46973e+000,1.00741e+001,8.11143e+000,7.39522e+000,7.37420e-001,1,3.60000e+001,-1.96400e+003,6.50000e+001,6.50000e+001
-8.20473e+003,-1.03826e+002,4.96636e+000,1.11935e+001,9.01159e+000,8.21580e+000,7.08245e-001,1,4.00000e+001,-1.96000e+003,6.50000e+001,6.50000e+001
-8.19079e+003,-1.04008e+002,5.46300e+000,1.23128e+001,9.91175e+000,9.03638e+000,6.79069e-001,1,4.40000e+001,-1.95600e+003,6.50000e+001,6.50000e+001
-8.17684e+003,-1.04191e+002,5.95964e+000,1.34322e+001,1.08119e+001,9.85696e+000,6.49894e-001,1,4.80000e+001,-1.95200e+003,6.50000e+001,6.50000e+001
-8.16118e+003,-1.04355e+002,6.47465e+000,1.45626e+001,1.15386e+001,1.06306e+001,6.20611e-001,1,5.20000e+001,-1.94800e+003,6.50000e+001,6.50000e+001
-8.14380e+003,-1.04500e+002,7.00804e+000,1.57041e+001,1.20917e+001,1.13572e+001,5.91222e-001,1,5.60000e+001,-1.94400e+003,6.50000e+001,6.50000e+001
-8.12641e+003,-1.04644e+002,7.54143e+000,1.68455e+001,1.26449e+001,1.20839e+001,5.61832e-001,1,6.00000e+001,-1.94000e+003,6.50000e+001,6.50000e+001
-8.10903e+003,-1.04789e+002,8.07482e+000,1.79870e+001,1.31980e+001,1.28106e+001,5.32442e-001,1,6.40000e+001,-1.93600e+003,6.50000e+001,6.50000e+001
-8.09165e+003,-1.04934e+002,8.60821e+000,1.91285e+001,1.37512e+001,1.35372e+001,5.03053e-001,1,6.80000e+001,-1.93200e+003,6.50000e+001,6.50000e+001
-8.07427e+003,-1.05079e+002,9.14161e+000,2.02699e+001,1.43043e+001,1.42639e+001,4.73663e-001,1,7.20000e+001,-1.92800e+003,6.50000e+001,6.50000e+001
-8.05688e+003,-1.05224e+002,9.67500e+000,2.14114e+001,1.48575e+001,1.49905e+001,4.44274e-001,1,7.60000e+001,-1.92400e+003,6.50000e+001,6.50000e+001
-8.03950e+003,-1.05368e+002,1.02084e+001,2.25529e+001,1.54106e+001,1.57172e+001,4.14884e-001,1,8.00000e+001,-1.92000e+003,6.50000e+001,6.50000e+001
-8.02658e+003,-1.04918e+002,9.62020e+000,2.12277e+001,1.49824e+001,1.55616e+001,4.27774e-001,1,8.40000e+001,-1.91600e+003,6.50000e+001,6.50000e+001
-8.01365e+003,-1.04467e+002,9.03202e+000,1.99026e+001,1.45541e+001,1.54061e+001,4.40663e-001,1,8.80000e+001,-1.91200e+003,6.50000e+001,6.50000e+001
-8.00073e+003,-1.04016e+002,8.44383e+000,1.85774e+001,1.41258e+001,1.52505e+001,4.53553e-001,1,9.20000e+001,-1.90800e+003,6.50000e+001,6.50000e+001
-7.98781e+003,-1.03565e+002,7.85565e+000,1.72523e+001,1.36975e+001,1.50950e+001,4.66443e-001,1,9.60000e+001,-1.90400e+003,6.50000e+001,6.50000e+001
-7.97488e+003,-1.03114e+002,7.26746e+000,1.59272e+001,1.32693e+001,1.49394e+001,4.79333e-001,1,1.00000e+002,-1.90000e+003,6.50000e+001,6.50000e+001
-7.96196e+003,-1.02664e+002,6.67927e+000,1.46020e+001,1.28410e+001,1.47839e+001,4.92222e-001,1,1.04000e+002,-1.89600e+003,6.50000e+001,6.50000e+001
-7.94904e+003,-1.02213e+002,6.09109e+000,1.32769e+001,1.24127e+001,1.46283e+001,5.05112e-001,1,1.08000e+002,-1.89200e+003,6.50000e+001,6.50000e+001
-7.93611e+003,-1.01762e+002,5.50290e+000,1.19517e+001,1.19844e+001,1.44728e+001,5.18002e-001,1,1.12000e+002,-1.88800e+003,6.50000e+001,6.50000e+001
-7.92319e+003,-1.01311e+002,4.91472e+000,1.06266e+001,1.15562e+001,1.43172e+001,5.30891e-001,1,1.16000e+002,-1.88400e+003,6.50000e+001,6.50000e+001
-7.91027e+003,-1.00860e+002,4.32653e+000,9.30145e+000,1.11279e+001,1.41616e+001,5.43781e-001,1,1.20000e+002,-1.88000e+003,6.50000e+001,6.50000e+001
-7.89734e+003,-1.00409e+002,3.73835e+000,7.97631e+000,1.06996e+001,1.40061e+001,5.56671e-001,1,1.24000e+002,-1.87600e+003,6.50000e+001,6.50000e+001
-7.88442e+003,-9.99586e+001,3.15016e+000,6.65117e+000,1.02714e+001,1.38505e+001,5.69560e-001,1,1.28000e+002,-1.87200e+003,6.50000e+001,6.50000e+001
-7.87117e+003,-9.95625e+001,2.56122e+000,5.34785e+000,9.97788e+000,1.36871e+001,5.81931e-001,1,1.32000e+002,-1.86800e+003,6.50000e+001,6.50000e+001
-7.85758e+003,-9.92211e+001,1.97154e+000,4.06635e+000,9.81919e+000,1.35157e+001,5.93782e-001,1,1.36000e+002,-1.86400e+003,6.50000e+001,6.50000e+001
-7.84400e+003,-9.88797e+001,1.38185e+000,2.78484e+000,9.66051e+000,1.33444e+001,6.05633e-001,1,1.40000e+002,-1.86000e+003,6.50000e+001,6.50000e+001
-7.83042e+003,-9.85383e+001,7.92159e-001,1.50334e+000,9.50182e+000,1.31731e+001,6.17485e-001,1,1.44000e+002,-1.85600e+003,6.50000e+001,6.50000e+001
-7.81684e+003,-9.81969e+001,2.02470e-001,2.21838e-001,9.34314e+000,1.30017e+001,6.29336e-001,1,1.48000e+002,-1.85200e+003,6.50000e+001,6.50000e+001
-7.80325e+003,-9.78555e+001,-3.87219e-001,-1.05966e+000,9.18445e+000,1.28304e+001,6.41187e-001,1,1.52000e+002,-1.84800e+003,6.50000e+001,6.50000e+001
-7.78967e+003,-9.75141e+001,-9.76907e-001,-2.34117e+000,9.02577e+000,1.26590e+001,6.53038e-001,1,1.56000e+002,-1.84400e+003,6.50000e+001,6.50000e+001
-7.77609e+003,-9.71728e+001,-1.56660e+000,-3.62267e+000,8.86709e+000,1.24877e+001,6.64890e-001,1,1.60000e+002,-1.84000e+003,6.50000e+001,6.50000e+001
-7.77649e+003,-9.72371e+001,-1.45553e+000,-3.30397e+000,8.85755e+000,1.24758e+001,6.64773e-001,1,1.64000e+002,-1.83600e+003,6.50000e+001,6.50000e+001
-7.77688e+003,-9.73015e+001,-1.34446e+000,-2.98528e+000,8.84801e+000,1.24640e+001,6.64657e-001,1,1.68000e+002,-1.83200e+003,6.50000e+001,6.50000e+001
-7.77728e+003,-9.73658e+001,-1.23339e+000,-2.66658e+000,8.83847e+000,1.24522e+001,6.64540e-001,1,1.72000e+002,-1.82800e+003,6.50000e+001,6.50000e+001
-7.77768e+003,-9.74302e+001,-1.12232e+000,-2.34789e+000,8.82893e+000,1.24403e+001,6.64424e-001,1,1.76000e+002,-1.82400e+003,6.50000e+001,6.50000e+001
-7.77808e+003,-9.74945e+001,-1.01125e+000,-2.02919e+000,8.81939e+000,1.24285e+001,6.64308e-001,1,1.80000e+002,-1.82000e+003,6.50000e+001,6.50000e+001
-7.77847e+003,-9.75589e+001,-9.00176e-001,-1.71049e+000,8.80985e+000,1.24167e+001,6.64191e-001,1,1.84000e+002,-1.81600e+003,6.50000e+001,6.50000e+001
-7.77887e+003,-9.76232e+001,-7.89105e-001,-1.39180e+000,8.80031e+000,1.24048e+001,6.64075e-001,1,1.88000e+002,-1.81200e+003,6.50000e+001,6.50000e+001
-7.77927e+003,-9.76876e+001,-6.78035e-001,-1.07310e+000,8.79077e+000,1.23930e+001,6.63959e-001,1,1.92000e+002,-1.80800e+003,6.50000e+001,6.50000e+001
-7.77967e+003,-9.77520e+001,-5.66965e-001,-7.54407e-001,8.78123e+000,1.23812e+001,6.63842e-001,1,1.96000e+002,-1.80400e+003,6.50000e+001,6.50000e+001
-7.78006e+003,-9.78163e+001,-4.55895e-001,-4.35711e-001,8.77169e+000,1.23693e+001,6.63726e-001,1,2.00000e+002,-1.80000e+003,6.50000e+001,6.50000e+001
-7.78046e+003,-9.78807e+001,-3.44825e-001,-1.17015e-001,8.76216e+000,1.23575e+001,6.63610e-001,1,2.04000e+002,-1.79600e+003,6.50000e+001,6.50000e+001
-7.78086e+003,-9.79450e+001,-2.33755e-001,2.01681e-001,8.75262e+000,1.23457e+001,6.63493e-001,1,2.08000e+002,-1.79200e+003,6.50000e+001,6.50000e+001
-7.78298e+003,-9.80149e+001,-1.35977e-001,4.94614e-001,8.74308e+000,1.23332e+001,6.63423e-001,1,2.12000e+002,-1.78800e+003,6.50000e+001,6.50000e+001
-7.78681e+003,-9.80903e+001,-5.14910e-002,7.61786e-001,8.73354e+000,1.23202e+001,6.63400e-001,1,2.16000e+002,-1.78400e+003,6.50000e+001,6.50000e+001
-7.79065e+003,-9.81657e+001,3.29951e-002,1.02896e+000,8.72400e+000,1.23072e+001,6.63377e-001,1,2.20000e+002,-1.78000e+003,6.50000e+001,6.50000e+001
-7.79448e+003,-9.82410e+001,1.17481e-001,1.29613e+000,8.71446e+000,1.22942e+001,6.63354e-001,1,2.24000e+002,-1.77600e+003,6.50000e+001,6.50000e+001
-7.79832e+003,-9.83164e+001,2.01967e-001,1.56330e+000,8.70492e+000,1.22812e+001,6.63330e-001,1,2.28000e+002,-1.77200e+003,6.50000e+001,6.50000e+001
-7.80215e+003,-9.83918e+001,2.86453e-001,1.83047e+000,8.69538e+000,1.22682e+001,6.63307e-001,1,2.32000e+002,-1.76800e+003,6.50000e+001,6.50000e+001
-7.80599e+003,-9.84672e+001,3.70939e-001,2.09764e+000,8.68584e+000,1.22552e+001,6.63284e-001,1,2.36000e+002,-1.76400e+003,6.50000e+001,6.50000e+001
-7.80983e+003,-9.85426e+001,4.55426e-001,2.36481e+000,8.67630e+000,1.22422e+001,6.63261e-001,1,2.40000e+002,-1.76000e+003,6.50000e+001,6.50000e+001
-7.80946e+003,-9.84920e+001,4.09927e-001,2.25859e+000,8.68420e+000,1.22304e+001,6.64392e-001,1,2.44000e+002,-1.75600e+003,6.50000e+001,6.50000e+001
-7.80909e+003,-9.84414e+001,3.64428e-001,2.15237e+000,8.69210e+000,1.22186e+001,6.65523e-001,1,2.48000e+002,-1.75200e+003,6.50000e+001,6.50000e+001
-7.80872e+003,-9.83907e+001,3.18929e-001,2.04614e+000,8.70000e+000,1.22069e+001,6.66654e-001,1,2.52000e+002,-1.74800e+003,6.50000e+001,6.50000e+001
-7.80835e+003,-9.83401e+001,2.73430e-001,1.93992e+000,8.70789e+000,1.21951e+001,6.67786e-001,1,2.56000e+002,-1.74400e+003,6.50000e+001,6.50000e+001
-7.80798e+003,-9.82895e+001,2.27931e-001,1.83369e+000,8.71579e+000,1.21833e+001,6.68917e-001,1,2.60000e+002,-1.74000e+003,6.50000e+001,6.50000e+001
-7.80761e+003,-9.82389e+001,1.82432e-001,1.72747e+000,8.72369e+000,1.21716e+001,6.70048e-001,1,2.64000e+002,-1.73600e+003,6.50000e+001,6.50000e+001
-7.80725e+003,-9.81883e+001,1.36933e-001,1.62124e+000,8.73159e+000,1.21598e+001,6.71180e-001,1,2.68000e+002,-1.73200e+003,6.50000e+001,6.50000e+001
-7.80688e+003,-9.81377e+001,9.14340e-002,1.51502e+000,8.73948e+000,1.21480e+001,6.72311e-001,1,2.72000e+002,-1.72800e+003,6.50000e+001,6.50000e+001
-7.80651e+003,-9.80870e+001,4.59351e-002,1.40879e+000,8.74738e+000,1.21363e+001,6.73442e-001,1,2.76000e+002,-1.72400e+003,6.50000e+001,6.50000e+001
-7.80614e+003,-9.80364e+001,4.36161e-004,1.30257e+000,8.75528e+000,1.21245e+001,6.74574e-001,1,2.80000e+002,-1.72000e+003,6.50000e+001,6.50000e+001
-7.80577e+003,-9.79858e+001,-4.50628e-002,1.19635e+000,8.76318e+000,1.21127e+001,6.75705e-001,1,2.84000e+002,-1.71600e+003,6.50000e+001,6.50000e+001
-7.80540e+003,-9.79352e+001,-9.05617e-002,1.09012e+000,8.77107e+000,1.21010e+001,6.76836e-001,1,2.88000e+002,-1.71200e+003,6.50000e+001,6.50000e+001
-7.80552e+003,-9.78827e+001,-1.36088e-001,9.85833e-001,8.77884e+000,1.20927e+001,6.77894e-001,1,2.92000e+002,-1.70800e+003,6.50000e+001,6.50000e+001
-7.80613e+003,-9.78282e+001,-1.81643e-001,8.83479e-001,8.78649e+000,1.20879e+001,6.78879e-001,1,2.96000e+002,-1.70400e+003,6.50000e+001,6.50000e+001
-7.80674e+003,-9.77738e+001,-2.27198e-001,7.81125e-001,8.79413e+000,1.20831e+001,6.79863e-001,1,3.00000e+002,-1.70000e+003,6.50000e+001,6.50000e+001
-7.80735e+003,-9.77193e+001,-2.72752e-001,6.78771e-001,8.80177e+000,1.20783e+001,6.80848e-001,1,3.04000e+002,-1.69600e+003,6.50000e+001,6.50000e+001
-7.80796e+003,-9.76648e+001,-3.18307e-001,5.76418e-001,8.80941e+000,1.20735e+001,6.81833e-001,1,3.08000e+002,-1.69200e+003,6.50000e+001,6.50000e+001
-7.80857e+003,-9.76104e+001,-3.63861e-001,4.74064e-001,8.81706e+000,1.20687e+001,6.82817e-001,1,3.12000e+002,-1.68800e+003,6.50000e+001,6.50000e+001
-7.80918e+003,-9.75559e+001,-4.09416e-001,3.71710e-001,8.82470e+000,1.20639e+001,6.83802e-001,1,3.16000e+002,-1.68400e+003,6.50000e+001,6.50000e+001
-7.80979e+003,-9.75015e+001,-4.54970e-001,2.69356e-001,8.83234e+000,1.20591e+001,6.84786e-001,1,3.20000e+002,-1.68000e+003,6.50000e+001,6.50000e+001
-7.81006e+003,-9.74923e+001,-4.51269e-001,2.83589e-001,8.83691e+000,1.20468e+001,6.85863e-001,1,3.24000e+002,-1.67600e+003,6.50000e+001,6.50000e+001
-7.81033e+003,-9.74832e+001,-4.47568e-001,2.97822e-001,8.84147e+000,1.20345e+001,6.86940e-001,1,3.28000e+002,-1.67200e+003,6.50000e+001,6.50000e+001
-7.81060e+003,-9.74741e+001,-4.43867e-001,3.12055e-001,8.84604e+000,1.20222e+001,6.88018e-001,1,3.32000e+002,-1.66800e+003,6.50000e+001,6.50000e+001
-7.81087e+003,-9.74649e+001,-4.40166e-001,3.26288e-001,8.85060e+000,1.20099e+001,6.89095e-001,1,3.36000e+002,-1.66400e+003,6.50000e+001,6.50000e+001
-7.81115e+003,-9.74558e+001,-4.36465e-001,3.40521e-001,8.85516e+000,1.19976e+001,6.90172e-001,1,3.40000e+002,-1.66000e+003,6.50000e+001,6.50000e+001
-7.81142e+003,-9.74467e+001,-4.32763e-001,3.54754e-001,8.85973e+000,1.19853e+001,6.91249e-001,1,3.44000e+002,-1.65600e+003,6.50000e+001,6.50000e+001
-7.81169e+003,-9.74375e+001,-4.29062e-001,3.68987e-001,8.86429e+000,1.19730e+001,6.92326e-001,1,3.48000e+002,-1.65200e+003,6.50000e+001,6.50000e+001
-7.81196e+003,-9.74284e+001,-4.25361e-001,3.83220e-001,8.86886e+000,1.19607e+001,6.93403e-001,1,3.52000e+002,-1.64800e+003,6.50000e+001,6.50000e+001
-7.81223e+003,-9.74193e+001,-4.21660e-001,3.97453e-001,8.87342e+000,1.19485e+001,6.94480e-001,1,3.56000e+002,-1.64400e+003,6.50000e+001,6.50000e+001
-7.81251e+003,-9.74101e+001,-4.17959e-001,4.11686e-001,8.87798e+000,1.19362e+001,6.95557e-001,1,3.60000e+002,-1.64000e+003,6.50000e+001,6.50000e+001
-7.81278e+003,-9.74010e+001,-4.14258e-001,4.25919e-001,8.88255e+000,1.19239e+001,6.96635e-001,1,3.64000e+002,-1.63600e+003,6.50000e+001,6.50000e+001
-7.81305e+003,-9.73919e+001,-4.10556e-001,4.40152e-001,8.88711e+000,1.19116e+001,6.97712e-001,1,3.68000e+002,-1.63200e+003,6.50000e+001,6.50000e+001
-7.81354e+003,-9.73869e+001,-4.08699e-001,4.52120e-001,8.89140e+000,1.18999e+001,6.98789e-001,1,3.72000e+002,-1.62800e+003,6.50000e+001,6.50000e+001
-7.81425e+003,-9.73860e+001,-4.08686e-001,4.61822e-001,8.89543e+000,1.18888e+001,6.99868e-001,1,3.76000e+002,-1.62400e+003,6.50000e+001,6.50000e+001
-7.81496e+003,-9.73851e+001,-4.08673e-001,4.71524e-001,8.89945e+000,1.18777e+001,7.00946e-001,1,3.80000e+002,-1.62000e+003,6.50000e+001,6.50000e+001
-7.81566e+003,-9.73843e+001,-4.08659e-001,4.81227e-001,8.90347e+000,1.18667e+001,7.02024e-001,1,3.84000e+002,-1.61600e+003,6.50000e+001,6.50000e+001
-7.81637e+003,-9.73834e+001,-4.08646e-001,4.90929e-001,8.90749e+000,1.18556e+001,7.03103e-001,1,3.88000e+002,-1.61200e+003,6.50000e+001,6.50000e+001
-7.81708e+003,-9.73826e+001,-4.08633e-001,5.00632e-001,8.91151e+000,1.18445e+001,7.04181e-001,1,3.92000e+002,-1.60800e+003,6.50000e+001,6.50000e+001
-7.81779e+003,-9.73817e+001,-4.08619e-001,5.10334e-001,8.91553e+000,1.18335e+001,7.05259e-001,1,3.96000e+002,-1.60400e+003,6.50000e+001,6.50000e+001
-7.81850e+003,-9.73808e+001,-4.08606e-001,5.20037e-001,8.91955e+000,1.18224e+001,7.06338e-001,1,4.00000e+002,-1.60000e+003,6.50000e+001,6.50000e+001
-7.81854e+003,-9.73706e+001,-4.11427e-001,5.08215e-001,8.91894e+000,1.18048e+001,7.07415e-001,1,4.04000e+002,-1.59600e+003,6.50000e+001,6.50000e+001
-7.81858e+003,-9.73604e+001,-4.14249e-001,4.96393e-001,8.91833e+000,1.17872e+001,7.08492e-001,1,4.08000e+002,-1.59200e+003,6.50000e+001,6.50000e+001
-7.81863e+003,-9.73502e+001,-4.17070e-001,4.84571e-001,8.91771e+000,1.17697e+001,7.09570e-001,1,4.12000e+002,-1.58800e+003,6.50000e+001,6.50000e+001
-7.81867e+003,-9.73399e+001,-4.19892e-001,4.72749e-001,8.91710e+000,1.17521e+001,7.10647e-001,1,4.16000e+002,-1.58400e+003,6.50000e+001,6.50000e+001
-7.81871e+003,-9.73297e+001,-4.22713e-001,4.60927e-001,8.91648e+000,1.17345e+001,7.11724e-001,1,4.20000e+002,-1.58000e+003,6.50000e+001,6.50000e+001
-7.81876e+003,-9.73195e+001,-4.25535e-001,4.49104e-001,8.91587e+000,1.17169e+001,7.12801e-001,1,4.24000e+002,-1.57600e+003,6.50000e+001,6.50000e+001
-7.81880e+003,-9.73093e+001,-4.28356e-001,4.37282e-001,8.91526e+000,1.16994e+001,7.13879e-001,1,4.28000e+002,-1.57200e+003,6.50000e+001,6.50000e+001
-7.81884e+003,-9.72990e+001,-4.31178e-001,4.25460e-001,8.91464e+000,1.16818e+001,7.14956e-001,1,4.32000e+002,-1.56800e+003,6.50000e+001,6.50000e+001
-7.81889e+003,-9.72888e+001,-4.33999e-001,4.13638e-001,8.91403e+000,1.16642e+001,7.16033e-001,1,4.36000e+002,-1.56400e+003,6.50000e+001,6.50000e+001
-7.81893e+003,-9.72786e+001,-4.36821e-001,4.01816e-001,8.91342e+000,1.16466e+001,7.17110e-001,1,4.40000e+002,-1.56000e+003,6.50000e+001,6.50000e+001
-7.81897e+003,-9.72684e+001,-4.39642e-001,3.89994e-001,8.91280e+000,1.16291e+001,7.18188e-001,1,4.44000e+002,-1.55600e+003,6.50000e+001,6.50000e+001
-7.81902e+003,-9.72582e+001,-4.42464e-001,3.78172e-001,8.91219e+000,1.16115e+001,7.19265e-001,1,4.48000e+002,-1.55200e+003,6.50000e+001,6.50000e+001
-7.81915e+003,-9.72481e+001,-4.45315e-001,3.66293e-001,8.91267e+000,1.15973e+001,7.20305e-001,1,4.52000e+002,-1.54800e+003,6.50000e+001,6.50000e+001
-7.81937e+003,-9.72383e+001,-4.48195e-001,3.54357e-001,8.91426e+000,1.15864e+001,7.21310e-001,1,4.56000e+002,-1.54400e+003,6.50000e+001,6.50000e+001
-7.81959e+003,-9.72284e+001,-4.51076e-001,3.42422e-001,8.91584e+000,1.15756e+001,7.22314e-001,1,4.60000e+002,-1.54000e+003,6.50000e+001,6.50000e+001
-7.81981e+003,-9.72186e+001,-4.53956e-001,3.30486e-001,8.91742e+000,1.15647e+001,7.23318e-001,1,4.64000e+002,-1.53600e+003,6.50000e+001,6.50000e+001
-7.82003e+003,-9.72087e+001,-4.56836e-001,3.18550e-001,8.91900e+000,1.15539e+001,7.24322e-001,1,4.68000e+002,-1.53200e+003,6.50000e+001,6.50000e+001
-7.82025e+003,-9.71989e+001,-4.59717e-001,3.06614e-001,8.92058e+000,1.15430e+001,7.25326e-001,1,4.72000e+002,-1.52800e+003,6.50000e+001,6.50000e+001
-7.82047e+003,-9.71891e+001,-4.62597e-001,2.94678e-001,8.92216e+000,1.15322e+001,7.26330e-001,1,4.76000e+002,-1.52400e+003,6.50000e+001,6.50000e+001
-7.82068e+003,-9.71792e+001,-4.65478e-001,2.82743e-001,8.92374e+000,1.15213e+001,7.27334e-001,1,4.80000e+002,-1.52000e+003,6.50000e+001,6.50000e+001
-7.82067e+003,-9.71713e+001,-4.64308e-001,2.80320e-001,8.92571e+000,1.15076e+001,7.28412e-001,1,4.84000e+002,-1.51600e+003,6.50000e+001,6.50000e+001
-7.82067e+003,-9.71634e+001,-4.63139e-001,2.77897e-001,8.92769e+000,1.14939e+001,7.29490e-001,1,4.88000e+002,-1.51200e+003,6.50000e+001,6.50000e+001
-7.82066e+003,-9.71555e+001,-4.61969e-001,2.75475e-001,8.92966e+000,1.14803e+001,7.30567e-001,1,4.92000e+002,-1.50800e+003,6.50000e+001,6.50000e+001
-7.82065e+003,-9.71476e+001,-4.60800e-001,2.73052e-001,8.93163e+000,1.14666e+001,7.31645e-001,1,4.96000e+002,-1.50400e+003,6.50000e+001,6.50000e+001
-7.82064e+003,-9.71397e+001,-4.59631e-001,2.70629e-001,8.93361e+000,1.14529e+001,7.32723e-001,1,5.00000e+002,-1.50000e+003,6.50000e+001,6.50000e+001
-7.82063e+003,-9.71318e+001,-4.58461e-001,2.68207e-001,8.93558e+000,1.14393e+001,7.33800e-001,1,5.04000e+002,-1.49600e+003,6.50000e+001,6.50000e+001
-7.82062e+003,-9.71238e+001,-4.57292e-001,2.65784e-001,8.93756e+000,1.14256e+001,7.34878e-001,1,5.08000e+002,-1.49200e+003,6.50000e+001,6.50000e+001
-7.82061e+003,-9.71159e+001,-4.56122e-001,2.63361e-001,8.93953e+000,1.14119e+001,7.35956e-001,1,5.12000e+002,-1.48800e+003,6.50000e+001,6.50000e+001
-7.82060e+003,-9.71080e+001,-4.54953e-001,2.60939e-001,8.94150e+000,1.13982e+001,7.37033e-001,1,5.16000e+002,-1.48400e+003,6.50000e+001,6.50000e+001
-7.82059e+003,-9.71001e+001,-4.53784e-001,2.58516e-001,8.94348e+000,1.13846e+001,7.38111e-001,1,5.20000e+002,-1.48000e+003,6.50000e+001,6.50000e+001
-7.82058e+003,-9.70922e+001,-4.52614e-001,2.56093e-001,8.94545e+000,1.13709e+001,7.39189e-001,1,5.24000e+002,-1.47600e+003,6.50000e+001,6.50000e+001
