"p","U:0","U:1","U:2","k","nut","omega","vtkValidPointMask","arc_length","Points:0","Points:1","Points:2"
-7.77341e+003,0.00000e+000,0.00000e+000,0.00000e+000,4.62355e-001,1.92211e-001,1.59597e-001,1,0.00000e+000,8.50000e+002,6.50000e+001,-1.00000e+003
-7.77327e+003,-3.72769e+000,1.47597e-001,5.09750e-002,5.25011e-001,2.18008e-001,2.10426e-001,1,2.00000e+000,8.50000e+002,6.50000e+001,-9.98000e+002
-7.77314e+003,-7.45539e+000,2.95193e-001,1.01950e-001,5.87668e-001,2.43805e-001,2.61256e-001,1,4.00000e+000,8.50000e+002,6.50000e+001,-9.96000e+002
-7.77300e+003,-1.11831e+001,4.42790e-001,1.52925e-001,6.50325e-001,2.69601e-001,3.12085e-001,1,6.00000e+000,8.50000e+002,6.50000e+001,-9.94000e+002
-7.77286e+003,-1.49108e+001,5.90387e-001,2.03900e-001,7.12982e-001,2.95398e-001,3.62915e-001,1,8.00000e+000,8.50000e+002,6.50000e+001,-9.92000e+002
-7.77273e+003,-1.86385e+001,7.37984e-001,2.54875e-001,7.75639e-001,3.21195e-001,4.13744e-001,1,1.00000e+001,8.50000e+002,6.50000e+001,-9.90000e+002
-7.77259e+003,-2.23662e+001,8.85580e-001,3.05850e-001,8.38296e-001,3.46992e-001,4.64574e-001,1,1.20000e+001,8.50000e+002,6.50000e+001,-9.88000e+002
-7.77254e+003,-2.57591e+001,1.08963e+000,3.59470e-001,9.21086e-001,3.78792e-001,5.20090e-001,1,1.40000e+001,8.50000e+002,6.50000e+001,-9.86000e+002
-7.77252e+003,-2.90404e+001,1.31249e+000,4.13972e-001,1.01059e+000,4.12594e-001,5.77169e-001,1,1.60000e+001,8.50000e+002,6.50000e+001,-9.84000e+002
-7.77250e+003,-3.23217e+001,1.53535e+000,4.68473e-001,1.10009e+000,4.46396e-001,6.34247e-001,1,1.80000e+001,8.50000e+002,6.50000e+001,-9.82000e+002
-7.77248e+003,-3.56030e+001,1.75821e+000,5.22975e-001,1.18959e+000,4.80199e-001,6.91326e-001,1,2.00000e+001,8.50000e+002,6.50000e+001,-9.80000e+002
-7.77246e+003,-3.88843e+001,1.98108e+000,5.77477e-001,1.27909e+000,5.14001e-001,7.48405e-001,1,2.20000e+001,8.50000e+002,6.50000e+001,-9.78000e+002
-7.77244e+003,-4.21657e+001,2.20394e+000,6.31978e-001,1.36859e+000,5.47803e-001,8.05484e-001,1,2.40000e+001,8.50000e+002,6.50000e+001,-9.76000e+002
-7.77242e+003,-4.54470e+001,2.42680e+000,6.86480e-001,1.45809e+000,5.81605e-001,8.62562e-001,1,2.60000e+001,8.50000e+002,6.50000e+001,-9.74000e+002
-7.77240e+003,-4.87283e+001,2.64966e+000,7.40981e-001,1.54759e+000,6.15407e-001,9.19641e-001,1,2.80000e+001,8.50000e+002,6.50000e+001,-9.72000e+002
-7.77238e+003,-5.20096e+001,2.87253e+000,7.95483e-001,1.63709e+000,6.49209e-001,9.76720e-001,1,3.00000e+001,8.50000e+002,6.50000e+001,-9.70000e+002
-7.77236e+003,-5.52909e+001,3.09539e+000,8.49985e-001,1.72660e+000,6.83011e-001,1.03380e+000,1,3.20000e+001,8.50000e+002,6.50000e+001,-9.68000e+002
-7.77234e+003,-5.85723e+001,3.31825e+000,9.04486e-001,1.81610e+000,7.16813e-001,1.09088e+000,1,3.40000e+001,8.50000e+002,6.50000e+001,-9.66000e+002
-7.77231e+003,-6.18536e+001,3.54111e+000,9.58988e-001,1.90560e+000,7.50615e-001,1.14796e+000,1,3.60000e+001,8.50000e+002,6.50000e+001,-9.64000e+002
-7.77229e+003,-6.51349e+001,3.76398e+000,1.01349e+000,1.99510e+000,7.84417e-001,1.20503e+000,1,3.80000e+001,8.50000e+002,6.50000e+001,-9.62000e+002
-7.77227e+003,-6.84162e+001,3.98684e+000,1.06799e+000,2.08460e+000,8.18219e-001,1.26211e+000,1,4.00000e+001,8.50000e+002,6.50000e+001,-9.60000e+002
-7.77175e+003,-7.08773e+001,3.88864e+000,1.05185e+000,2.07856e+000,8.22679e-001,1.28105e+000,1,4.20000e+001,8.50000e+002,6.50000e+001,-9.58000e+002
-7.77122e+003,-7.33383e+001,3.79044e+000,1.03572e+000,2.07253e+000,8.27140e-001,1.29999e+000,1,4.40000e+001,8.50000e+002,6.50000e+001,-9.56000e+002
-7.77070e+003,-7.57994e+001,3.69223e+000,1.01958e+000,2.06649e+000,8.31601e-001,1.31893e+000,1,4.60000e+001,8.50000e+002,6.50000e+001,-9.54000e+002
-7.77017e+003,-7.82604e+001,3.59403e+000,1.00344e+000,2.06045e+000,8.36062e-001,1.33787e+000,1,4.80000e+001,8.50000e+002,6.50000e+001,-9.52000e+002
-7.76965e+003,-8.07215e+001,3.49583e+000,9.87306e-001,2.05441e+000,8.40522e-001,1.35681e+000,1,5.00000e+001,8.50000e+002,6.50000e+001,-9.50000e+002
-7.76912e+003,-8.31825e+001,3.39763e+000,9.71169e-001,2.04837e+000,8.44983e-001,1.37574e+000,1,5.20000e+001,8.50000e+002,6.50000e+001,-9.48000e+002
-7.76860e+003,-8.56436e+001,3.29943e+000,9.55032e-001,2.04234e+000,8.49444e-001,1.39468e+000,1,5.40000e+001,8.50000e+002,6.50000e+001,-9.46000e+002
-7.76807e+003,-8.81046e+001,3.20123e+000,9.38895e-001,2.03630e+000,8.53905e-001,1.41362e+000,1,5.60000e+001,8.50000e+002,6.50000e+001,-9.44000e+002
-7.76755e+003,-9.05657e+001,3.10302e+000,9.22758e-001,2.03026e+000,8.58366e-001,1.43256e+000,1,5.80000e+001,8.50000e+002,6.50000e+001,-9.42000e+002
-7.76702e+003,-9.30267e+001,3.00482e+000,9.06621e-001,2.02422e+000,8.62826e-001,1.45150e+000,1,6.00000e+001,8.50000e+002,6.50000e+001,-9.40000e+002
-7.76650e+003,-9.54878e+001,2.90662e+000,8.90483e-001,2.01818e+000,8.67287e-001,1.47044e+000,1,6.20000e+001,8.50000e+002,6.50000e+001,-9.38000e+002
-7.76597e+003,-9.79488e+001,2.80842e+000,8.74346e-001,2.01215e+000,8.71748e-001,1.48937e+000,1,6.40000e+001,8.50000e+002,6.50000e+001,-9.36000e+002
-7.76545e+003,-1.00410e+002,2.71022e+000,8.58209e-001,2.00611e+000,8.76209e-001,1.50831e+000,1,6.60000e+001,8.50000e+002,6.50000e+001,-9.34000e+002
-7.76488e+003,-1.02787e+002,2.62857e+000,8.47193e-001,2.00040e+000,8.80681e-001,1.52695e+000,1,6.80000e+001,8.50000e+002,6.50000e+001,-9.32000e+002
-7.76418e+003,-1.04911e+002,2.59657e+000,8.51536e-001,1.99568e+000,8.85187e-001,1.54470e+000,1,7.00000e+001,8.50000e+002,6.50000e+001,-9.30000e+002
-7.76349e+003,-1.07036e+002,2.56458e+000,8.55880e-001,1.99096e+000,8.89692e-001,1.56245e+000,1,7.20000e+001,8.50000e+002,6.50000e+001,-9.28000e+002
-7.76279e+003,-1.09160e+002,2.53258e+000,8.60224e-001,1.98624e+000,8.94198e-001,1.58019e+000,1,7.40000e+001,8.50000e+002,6.50000e+001,-9.26000e+002
-7.76210e+003,-1.11285e+002,2.50058e+000,8.64568e-001,1.98153e+000,8.98704e-001,1.59794e+000,1,7.60000e+001,8.50000e+002,6.50000e+001,-9.24000e+002
-7.76140e+003,-1.13409e+002,2.46859e+000,8.68912e-001,1.97681e+000,9.03210e-001,1.61568e+000,1,7.80000e+001,8.50000e+002,6.50000e+001,-9.22000e+002
-7.76071e+003,-1.15534e+002,2.43659e+000,8.73256e-001,1.97209e+000,9.07716e-001,1.63343e+000,1,8.00000e+001,8.50000e+002,6.50000e+001,-9.20000e+002
-7.76033e+003,-1.16095e+002,2.34136e+000,8.93510e-001,1.87089e+000,8.67070e-001,1.59143e+000,1,8.20000e+001,8.50000e+002,6.50000e+001,-9.18000e+002
-7.75995e+003,-1.16657e+002,2.24613e+000,9.13764e-001,1.76970e+000,8.26425e-001,1.54943e+000,1,8.40000e+001,8.50000e+002,6.50000e+001,-9.16000e+002
-7.75957e+003,-1.17219e+002,2.15090e+000,9.34018e-001,1.66851e+000,7.85780e-001,1.50743e+000,1,8.60000e+001,8.50000e+002,6.50000e+001,-9.14000e+002
-7.75920e+003,-1.17780e+002,2.05568e+000,9.54273e-001,1.56732e+000,7.45135e-001,1.46543e+000,1,8.80000e+001,8.50000e+002,6.50000e+001,-9.12000e+002
-7.75882e+003,-1.18342e+002,1.96045e+000,9.74527e-001,1.46612e+000,7.04490e-001,1.42343e+000,1,9.00000e+001,8.50000e+002,6.50000e+001,-9.10000e+002
-7.75844e+003,-1.18903e+002,1.86522e+000,9.94781e-001,1.36493e+000,6.63844e-001,1.38143e+000,1,9.20000e+001,8.50000e+002,6.50000e+001,-9.08000e+002
-7.75806e+003,-1.19465e+002,1.76999e+000,1.01503e+000,1.26374e+000,6.23199e-001,1.33943e+000,1,9.40000e+001,8.50000e+002,6.50000e+001,-9.06000e+002
-7.75768e+003,-1.20026e+002,1.67476e+000,1.03529e+000,1.16255e+000,5.82554e-001,1.29743e+000,1,9.60000e+001,8.50000e+002,6.50000e+001,-9.04000e+002
-7.75730e+003,-1.20588e+002,1.57953e+000,1.05554e+000,1.06135e+000,5.41909e-001,1.25543e+000,1,9.80000e+001,8.50000e+002,6.50000e+001,-9.02000e+002
-7.75693e+003,-1.21149e+002,1.48430e+000,1.07580e+000,9.60160e-001,5.01264e-001,1.21343e+000,1,1.00000e+002,8.50000e+002,6.50000e+001,-9.00000e+002
-7.75655e+003,-1.21711e+002,1.38907e+000,1.09605e+000,8.58967e-001,4.60618e-001,1.17143e+000,1,1.02000e+002,8.50000e+002,6.50000e+001,-8.98000e+002
-7.75617e+003,-1.22272e+002,1.29384e+000,1.11631e+000,7.57774e-001,4.19973e-001,1.12943e+000,1,1.04000e+002,8.50000e+002,6.50000e+001,-8.96000e+002
-7.75579e+003,-1.22834e+002,1.19861e+000,1.13656e+000,6.56582e-001,3.79328e-001,1.08743e+000,1,1.06000e+002,8.50000e+002,6.50000e+001,-8.94000e+002
-7.75538e+003,-1.23282e+002,1.11263e+000,1.15363e+000,5.62662e-001,3.40755e-001,1.04705e+000,1,1.08000e+002,8.50000e+002,6.50000e+001,-8.92000e+002
-7.75485e+003,-1.23388e+002,1.05439e+000,1.16115e+000,4.90560e-001,3.08397e-001,1.01151e+000,1,1.10000e+002,8.50000e+002,6.50000e+001,-8.90000e+002
-7.75432e+003,-1.23494e+002,9.96147e-001,1.16867e+000,4.18459e-001,2.76040e-001,9.75976e-001,1,1.12000e+002,8.50000e+002,6.50000e+001,-8.88000e+002
-7.75379e+003,-1.23601e+002,9.37904e-001,1.17620e+000,3.46358e-001,2.43683e-001,9.40440e-001,1,1.14000e+002,8.50000e+002,6.50000e+001,-8.86000e+002
-7.75326e+003,-1.23707e+002,8.79662e-001,1.18372e+000,2.74257e-001,2.11326e-001,9.04903e-001,1,1.16000e+002,8.50000e+002,6.50000e+001,-8.84000e+002
-7.75273e+003,-1.23814e+002,8.21419e-001,1.19124e+000,2.02155e-001,1.78968e-001,8.69367e-001,1,1.18000e+002,8.50000e+002,6.50000e+001,-8.82000e+002
-7.75220e+003,-1.23920e+002,7.63176e-001,1.19876e+000,1.30054e-001,1.46611e-001,8.33830e-001,1,1.20000e+002,8.50000e+002,6.50000e+001,-8.80000e+002
-7.75155e+003,-1.24015e+002,7.24594e-001,1.24749e+000,1.24429e-001,1.40589e-001,8.30839e-001,1,1.22000e+002,8.50000e+002,6.50000e+001,-8.78000e+002
-7.75089e+003,-1.24110e+002,6.86012e-001,1.29621e+000,1.18804e-001,1.34568e-001,8.27847e-001,1,1.24000e+002,8.50000e+002,6.50000e+001,-8.76000e+002
-7.75024e+003,-1.24205e+002,6.47430e-001,1.34494e+000,1.13178e-001,1.28546e-001,8.24856e-001,1,1.26000e+002,8.50000e+002,6.50000e+001,-8.74000e+002
-7.74959e+003,-1.24300e+002,6.08848e-001,1.39367e+000,1.07553e-001,1.22524e-001,8.21865e-001,1,1.28000e+002,8.50000e+002,6.50000e+001,-8.72000e+002
-7.74893e+003,-1.24395e+002,5.70266e-001,1.44239e+000,1.01928e-001,1.16503e-001,8.18873e-001,1,1.30000e+002,8.50000e+002,6.50000e+001,-8.70000e+002
-7.74828e+003,-1.24490e+002,5.31685e-001,1.49112e+000,9.63023e-002,1.10481e-001,8.15882e-001,1,1.32000e+002,8.50000e+002,6.50000e+001,-8.68000e+002
-7.74763e+003,-1.24585e+002,4.93103e-001,1.53984e+000,9.06770e-002,1.04459e-001,8.12890e-001,1,1.34000e+002,8.50000e+002,6.50000e+001,-8.66000e+002
-7.74697e+003,-1.24680e+002,4.54521e-001,1.58857e+000,8.50517e-002,9.84378e-002,8.09899e-001,1,1.36000e+002,8.50000e+002,6.50000e+001,-8.64000e+002
-7.74632e+003,-1.24774e+002,4.15939e-001,1.63730e+000,7.94264e-002,9.24161e-002,8.06907e-001,1,1.38000e+002,8.50000e+002,6.50000e+001,-8.62000e+002
-7.74567e+003,-1.24869e+002,3.77357e-001,1.68602e+000,7.38011e-002,8.63944e-002,8.03916e-001,1,1.40000e+002,8.50000e+002,6.50000e+001,-8.60000e+002
-7.74502e+003,-1.24964e+002,3.38775e-001,1.73475e+000,6.81758e-002,8.03728e-002,8.00925e-001,1,1.42000e+002,8.50000e+002,6.50000e+001,-8.58000e+002
-7.74436e+003,-1.25059e+002,3.00193e-001,1.78347e+000,6.25505e-002,7.43511e-002,7.97933e-001,1,1.44000e+002,8.50000e+002,6.50000e+001,-8.56000e+002
-7.74371e+003,-1.25154e+002,2.61611e-001,1.83220e+000,5.69252e-002,6.83294e-002,7.94942e-001,1,1.46000e+002,8.50000e+002,6.50000e+001,-8.54000e+002
-7.74298e+003,-1.25265e+002,2.23834e-001,1.88176e+000,5.15269e-002,6.24455e-002,7.92352e-001,1,1.48000e+002,8.50000e+002,6.50000e+001,-8.52000e+002
-7.74200e+003,-1.25422e+002,1.88470e-001,1.93383e+000,4.68095e-002,5.69749e-002,7.90968e-001,1,1.50000e+002,8.50000e+002,6.50000e+001,-8.50000e+002
-7.74102e+003,-1.25580e+002,1.53107e-001,1.98590e+000,4.20920e-002,5.15044e-002,7.89585e-001,1,1.52000e+002,8.50000e+002,6.50000e+001,-8.48000e+002
-7.74004e+003,-1.25738e+002,1.17743e-001,2.03797e+000,3.73746e-002,4.60338e-002,7.88201e-001,1,1.54000e+002,8.50000e+002,6.50000e+001,-8.46000e+002
-7.73906e+003,-1.25895e+002,8.23798e-002,2.09004e+000,3.26572e-002,4.05632e-002,7.86817e-001,1,1.56000e+002,8.50000e+002,6.50000e+001,-8.44000e+002
-7.73809e+003,-1.26053e+002,4.70164e-002,2.14211e+000,2.79397e-002,3.50926e-002,7.85433e-001,1,1.58000e+002,8.50000e+002,6.50000e+001,-8.42000e+002
-7.73711e+003,-1.26210e+002,1.16529e-002,2.19418e+000,2.32223e-002,2.96220e-002,7.84050e-001,1,1.60000e+002,8.50000e+002,6.50000e+001,-8.40000e+002
-7.73561e+003,-1.26284e+002,1.58523e-002,2.18132e+000,2.37304e-002,3.00662e-002,7.87591e-001,1,1.62000e+002,8.50000e+002,6.50000e+001,-8.38000e+002
-7.73411e+003,-1.26358e+002,2.00518e-002,2.16847e+000,2.42385e-002,3.05104e-002,7.91132e-001,1,1.64000e+002,8.50000e+002,6.50000e+001,-8.36000e+002
-7.73261e+003,-1.26431e+002,2.42512e-002,2.15561e+000,2.47465e-002,3.09545e-002,7.94673e-001,1,1.66000e+002,8.50000e+002,6.50000e+001,-8.34000e+002
-7.73111e+003,-1.26505e+002,2.84506e-002,2.14275e+000,2.52546e-002,3.13987e-002,7.98214e-001,1,1.68000e+002,8.50000e+002,6.50000e+001,-8.32000e+002
-7.72961e+003,-1.26579e+002,3.26500e-002,2.12990e+000,2.57627e-002,3.18428e-002,8.01755e-001,1,1.70000e+002,8.50000e+002,6.50000e+001,-8.30000e+002
-7.72811e+003,-1.26652e+002,3.68495e-002,2.11704e+000,2.62707e-002,3.22870e-002,8.05296e-001,1,1.72000e+002,8.50000e+002,6.50000e+001,-8.28000e+002
-7.72661e+003,-1.26726e+002,4.10489e-002,2.10418e+000,2.67788e-002,3.27312e-002,8.08837e-001,1,1.74000e+002,8.50000e+002,6.50000e+001,-8.26000e+002
-7.72511e+003,-1.26800e+002,4.52483e-002,2.09133e+000,2.72869e-002,3.31753e-002,8.12378e-001,1,1.76000e+002,8.50000e+002,6.50000e+001,-8.24000e+002
-7.72361e+003,-1.26873e+002,4.94477e-002,2.07847e+000,2.77950e-002,3.36195e-002,8.15919e-001,1,1.78000e+002,8.50000e+002,6.50000e+001,-8.22000e+002
-7.72211e+003,-1.26947e+002,5.36472e-002,2.06561e+000,2.83030e-002,3.40636e-002,8.19460e-001,1,1.80000e+002,8.50000e+002,6.50000e+001,-8.20000e+002
-7.72061e+003,-1.27021e+002,5.78466e-002,2.05276e+000,2.88111e-002,3.45078e-002,8.23001e-001,1,1.82000e+002,8.50000e+002,6.50000e+001,-8.18000e+002
-7.71911e+003,-1.27095e+002,6.20460e-002,2.03990e+000,2.93192e-002,3.49520e-002,8.26542e-001,1,1.84000e+002,8.50000e+002,6.50000e+001,-8.16000e+002
-7.71761e+003,-1.27168e+002,6.62455e-002,2.02704e+000,2.98272e-002,3.53961e-002,8.30083e-001,1,1.86000e+002,8.50000e+002,6.50000e+001,-8.14000e+002
-7.71606e+003,-1.27312e+002,6.84692e-002,2.01096e+000,3.03000e-002,3.58065e-002,8.33498e-001,1,1.88000e+002,8.50000e+002,6.50000e+001,-8.12000e+002
-7.71436e+003,-1.27667e+002,6.47656e-002,1.98518e+000,3.06670e-002,3.61153e-002,8.36536e-001,1,1.90000e+002,8.50000e+002,6.50000e+001,-8.10000e+002
-7.71266e+003,-1.28023e+002,6.10621e-002,1.95940e+000,3.10340e-002,3.64242e-002,8.39575e-001,1,1.92000e+002,8.50000e+002,6.50000e+001,-8.08000e+002
-7.71096e+003,-1.28378e+002,5.73586e-002,1.93362e+000,3.14010e-002,3.67331e-002,8.42613e-001,1,1.94000e+002,8.50000e+002,6.50000e+001,-8.06000e+002
-7.70926e+003,-1.28733e+002,5.36551e-002,1.90784e+000,3.17680e-002,3.70420e-002,8.45651e-001,1,1.96000e+002,8.50000e+002,6.50000e+001,-8.04000e+002
-7.70756e+003,-1.29088e+002,4.99516e-002,1.88206e+000,3.21350e-002,3.73509e-002,8.48689e-001,1,1.98000e+002,8.50000e+002,6.50000e+001,-8.02000e+002
-7.70586e+003,-1.29443e+002,4.62481e-002,1.85628e+000,3.25020e-002,3.76597e-002,8.51727e-001,1,2.00000e+002,8.50000e+002,6.50000e+001,-8.00000e+002
-7.70387e+003,-1.28805e+002,7.01998e-002,1.86657e+000,3.44324e-002,3.91927e-002,8.59337e-001,1,2.02000e+002,8.50000e+002,6.50000e+001,-7.98000e+002
-7.70187e+003,-1.28167e+002,9.41514e-002,1.87686e+000,3.63628e-002,4.07256e-002,8.66947e-001,1,2.04000e+002,8.50000e+002,6.50000e+001,-7.96000e+002
-7.69988e+003,-1.27529e+002,1.18103e-001,1.88715e+000,3.82933e-002,4.22586e-002,8.74556e-001,1,2.06000e+002,8.50000e+002,6.50000e+001,-7.94000e+002
-7.69788e+003,-1.26890e+002,1.42055e-001,1.89744e+000,4.02237e-002,4.37915e-002,8.82166e-001,1,2.08000e+002,8.50000e+002,6.50000e+001,-7.92000e+002
-7.69589e+003,-1.26252e+002,1.66006e-001,1.90773e+000,4.21542e-002,4.53245e-002,8.89776e-001,1,2.10000e+002,8.50000e+002,6.50000e+001,-7.90000e+002
-7.69390e+003,-1.25614e+002,1.89958e-001,1.91802e+000,4.40846e-002,4.68574e-002,8.97386e-001,1,2.12000e+002,8.50000e+002,6.50000e+001,-7.88000e+002
-7.69190e+003,-1.24976e+002,2.13909e-001,1.92832e+000,4.60151e-002,4.83903e-002,9.04996e-001,1,2.14000e+002,8.50000e+002,6.50000e+001,-7.86000e+002
-7.68991e+003,-1.24338e+002,2.37861e-001,1.93861e+000,4.79455e-002,4.99233e-002,9.12606e-001,1,2.16000e+002,8.50000e+002,6.50000e+001,-7.84000e+002
-7.68791e+003,-1.23700e+002,2.61813e-001,1.94890e+000,4.98760e-002,5.14562e-002,9.20215e-001,1,2.18000e+002,8.50000e+002,6.50000e+001,-7.82000e+002
-7.68592e+003,-1.23061e+002,2.85764e-001,1.95919e+000,5.18064e-002,5.29892e-002,9.27825e-001,1,2.20000e+002,8.50000e+002,6.50000e+001,-7.80000e+002
-7.68392e+003,-1.22423e+002,3.09716e-001,1.96948e+000,5.37369e-002,5.45221e-002,9.35435e-001,1,2.22000e+002,8.50000e+002,6.50000e+001,-7.78000e+002
-7.68193e+003,-1.21785e+002,3.33667e-001,1.97977e+000,5.56673e-002,5.60551e-002,9.43045e-001,1,2.24000e+002,8.50000e+002,6.50000e+001,-7.76000e+002
-7.67994e+003,-1.21147e+002,3.57619e-001,1.99006e+000,5.75978e-002,5.75880e-002,9.50655e-001,1,2.26000e+002,8.50000e+002,6.50000e+001,-7.74000e+002
-7.67793e+003,-1.20530e+002,3.77783e-001,1.99657e+000,5.95165e-002,5.91235e-002,9.58104e-001,1,2.28000e+002,8.50000e+002,6.50000e+001,-7.72000e+002
-7.67591e+003,-1.19975e+002,3.86586e-001,1.99173e+000,6.14003e-002,6.06668e-002,9.65073e-001,1,2.30000e+002,8.50000e+002,6.50000e+001,-7.70000e+002
-7.67388e+003,-1.19421e+002,3.95388e-001,1.98688e+000,6.32840e-002,6.22101e-002,9.72042e-001,1,2.32000e+002,8.50000e+002,6.50000e+001,-7.68000e+002
-7.67186e+003,-1.18867e+002,4.04191e-001,1.98204e+000,6.51678e-002,6.37533e-002,9.79011e-001,1,2.34000e+002,8.50000e+002,6.50000e+001,-7.66000e+002
-7.66983e+003,-1.18312e+002,4.12993e-001,1.97720e+000,6.70515e-002,6.52966e-002,9.85979e-001,1,2.36000e+002,8.50000e+002,6.50000e+001,-7.64000e+002
-7.66781e+003,-1.17758e+002,4.21796e-001,1.97236e+000,6.89353e-002,6.68399e-002,9.92948e-001,1,2.38000e+002,8.50000e+002,6.50000e+001,-7.62000e+002
-7.66578e+003,-1.17203e+002,4.30598e-001,1.96752e+000,7.08191e-002,6.83831e-002,9.99917e-001,1,2.40000e+002,8.50000e+002,6.50000e+001,-7.60000e+002
-7.66362e+003,-1.16250e+002,4.38473e-001,1.92986e+000,7.09854e-002,6.86418e-002,9.98691e-001,1,2.42000e+002,8.50000e+002,6.50000e+001,-7.58000e+002
-7.66147e+003,-1.15297e+002,4.46347e-001,1.89221e+000,7.11517e-002,6.89005e-002,9.97464e-001,1,2.44000e+002,8.50000e+002,6.50000e+001,-7.56000e+002
-7.65931e+003,-1.14344e+002,4.54222e-001,1.85455e+000,7.13180e-002,6.91591e-002,9.96238e-001,1,2.46000e+002,8.50000e+002,6.50000e+001,-7.54000e+002
-7.65715e+003,-1.13391e+002,4.62096e-001,1.81690e+000,7.14843e-002,6.94178e-002,9.95012e-001,1,2.48000e+002,8.50000e+002,6.50000e+001,-7.52000e+002
-7.65500e+003,-1.12438e+002,4.69971e-001,1.77924e+000,7.16506e-002,6.96765e-002,9.93786e-001,1,2.50000e+002,8.50000e+002,6.50000e+001,-7.50000e+002
-7.65284e+003,-1.11485e+002,4.77845e-001,1.74159e+000,7.18169e-002,6.99351e-002,9.92559e-001,1,2.52000e+002,8.50000e+002,6.50000e+001,-7.48000e+002
-7.65068e+003,-1.10532e+002,4.85720e-001,1.70393e+000,7.19832e-002,7.01938e-002,9.91333e-001,1,2.54000e+002,8.50000e+002,6.50000e+001,-7.46000e+002
-7.64853e+003,-1.09579e+002,4.93594e-001,1.66628e+000,7.21495e-002,7.04525e-002,9.90107e-001,1,2.56000e+002,8.50000e+002,6.50000e+001,-7.44000e+002
-7.64637e+003,-1.08626e+002,5.01469e-001,1.62863e+000,7.23158e-002,7.07111e-002,9.88881e-001,1,2.58000e+002,8.50000e+002,6.50000e+001,-7.42000e+002
-7.64421e+003,-1.07673e+002,5.09343e-001,1.59097e+000,7.24821e-002,7.09698e-002,9.87654e-001,1,2.60000e+002,8.50000e+002,6.50000e+001,-7.40000e+002
-7.64206e+003,-1.06720e+002,5.17218e-001,1.55332e+000,7.26484e-002,7.12285e-002,9.86428e-001,1,2.62000e+002,8.50000e+002,6.50000e+001,-7.38000e+002
-7.63990e+003,-1.05767e+002,5.25092e-001,1.51566e+000,7.28147e-002,7.14871e-002,9.85202e-001,1,2.64000e+002,8.50000e+002,6.50000e+001,-7.36000e+002
